
# OSU MPI Bandwidth Test v7.5
# Datatype: MPI_CHAR.
# Size      Bandwidth (MB/s) P25 Tail BW(MB/s) P50 Tail BW(MB/s) P75 Tail BW(MB/s) P90 Tail BW(MB/s) P95 Tail BW(MB/s)
1                       5.42              5.48              5.51              5.54              5.57              5.59
2                      10.88             10.96             11.05             11.08             11.14             11.17
4                      21.77             21.86             21.98             22.10             22.22             22.28
8                      43.52             43.72             43.96             44.20             44.44             44.57
16                     87.00             87.43             87.92             88.41             88.89             88.90
32                    166.16            166.25            167.99            169.33            170.23            171.12
64                    326.34            329.08            333.36            336.84            339.55            342.25
128                   631.65            629.04            636.87            646.46            654.73            659.85
256                  1133.53           1130.32           1145.49           1155.76           1163.72           1171.62
512                  2141.57           2120.22           2160.34           2202.15           2240.85           2265.49
1024                 3390.62           3379.54           3424.93           3482.99           3537.13           3568.14
2048                 5870.17           5843.34           5997.35           6122.86           6225.22           6282.51
4096                10895.80          10779.39          10951.87          11237.31          11538.54          11702.86
8192                16555.24          16500.02          16718.90          16943.67          17156.58          17283.27
16384               26318.80          26448.47          26619.68          26793.82          26948.06          27037.00
32768               38372.14          38687.84          38780.13          38872.14          38964.59          39033.48
65536               50047.03          50510.66          50569.73          50647.89          50706.67          50745.32
131072              59589.21          60154.52          60251.30          60320.62          60376.19          60417.50
262144              65394.77          65686.10          66149.95          66570.18          66884.40          66969.83
524288              51476.72          51209.22          52068.71          52880.02          53593.54          54013.24
1048576             36634.15          36526.82          36960.69          37412.34          37832.81          38103.65
2097152             31531.62          32121.92          32857.43          33229.93          33525.28          33696.84
4194304             20976.18          20860.54          21063.24          21266.15          21542.03          21766.67
